Digitized from Gillespie et al. 1974, Am. Mineralogist, 59, 
1113-1116, sample #25, Upton, Wyoming.  Average of 6 independent digitizations.  Data between 2.1 and 2.5 microns are only
qualitative due to low precision of the measurements.
Wave-   average absorp  standard
length    coefficient   deviation
microns     (cm-1)      abs coeff
0.4000	30.3429	2.3500
0.4100	27.5301	1.3550
0.4200	24.8113	0.8976
0.4300	22.1695	0.4806
0.4400	19.9926	0.6893
0.4500	18.1144	0.5701
0.4600	16.1977	0.5538
0.4700	14.4945	0.5795
0.4800	12.9945	0.4093
0.4900	11.8505	0.2121
0.5000	10.8984	0.2051
0.5100	9.6764	0.1171
0.5200	8.8204	0.1107
0.5300	8.0274	0.1629
0.5400	7.3141	0.1559
0.5500	6.7239	0.0778
0.5600	6.2528	0.0988
0.5700	5.9644	0.0651
0.5800	5.7859	0.0676
0.5900	5.6483	0.0794
0.6000	5.5558	0.0658
0.6100	5.4790	0.0631
0.6200	5.4269	0.0588
0.6300	5.3890	0.0515
0.6400	5.2556	0.0387
0.6500	5.0954	0.0522
0.6600	4.9514	0.0405
0.6700	4.7733	0.0363
0.6800	4.5500	0.0348
0.6900	4.3392	0.0393
0.7000	4.2003	0.0330
0.7100	4.0807	0.0345
0.7200	3.9867	0.0273
0.7300	3.8960	0.0215
0.7400	3.8142	0.0249
0.7500	3.7395	0.0261
0.7600	3.6744	0.0265
0.7700	3.6160	0.0338
0.7800	3.5597	0.0344
0.7900	3.5062	0.0341
0.8000	3.4575	0.0361
0.8100	3.4200	0.0326
0.8200	3.3849	0.0293
0.8300	3.3502	0.0273
0.8400	3.3104	0.0259
0.8500	3.2693	0.0269
0.8600	3.2341	0.0271
0.8700	3.2040	0.0295
0.8800	3.1705	0.0326
0.8900	3.1312	0.0301
0.9000	3.0921	0.0246
0.9100	3.0525	0.0319
0.9200	3.0179	0.0419
0.9300	2.9749	0.0465
0.9400	2.9238	0.0421
0.9500	2.8788	0.0361
0.9600	2.8372	0.0335
0.9700	2.7978	0.0308
0.9800	2.7560	0.0332
0.9900	2.7125	0.0350
1.0000	2.6770	0.0405
1.0100	2.6475	0.0477
1.0200	2.6144	0.0541
1.0300	2.5786	0.0604
1.0400	2.5467	0.0630
1.0500	2.5147	0.0595
1.0600	2.4775	0.0540
1.0700	2.4398	0.0501
1.0800	2.4065	0.0475
1.0900	2.3719	0.0463
1.1000	2.3335	0.0420
1.1100	2.2932	0.0363
1.1200	2.2541	0.0337
1.1300	2.2177	0.0346
1.1400	2.1826	0.0375
1.1500	2.1335	0.0380
1.1600	2.0912	0.0432
1.1700	2.0567	0.0478
1.1800	2.0184	0.0542
1.1900	1.9758	0.0611
1.2000	1.9369	0.0529
1.2100	1.9033	0.0424
1.2200	1.8718	0.0342
1.2300	1.8361	0.0240
1.2400	1.8010	0.0258
1.2500	1.7669	0.0238
1.2600	1.7287	0.0295
1.2700	1.6787	0.0464
1.2800	1.6214	0.0586
1.2900	1.6015	0.0622
1.3000	1.6336	0.0571
1.3100	1.7030	0.0533
1.3200	1.7933	0.0465
1.3300	1.9004	0.0466
1.3400	2.0330	0.0409
1.3500	2.1776	0.0392
1.3600	2.4225	0.0709
1.3700	2.7017	0.0761
1.3800	3.1485	0.0516
1.3900	3.7418	0.1090
1.4000	5.2442	0.4372
1.4100	6.5404	0.2083
1.4200	5.9003	0.2414
1.4300	3.8031	0.3986
1.4400	3.1171	0.0398
1.4500	3.0557	0.0429
1.4600	2.8411	0.0421
1.4700	2.4986	0.0407
1.4800	2.2355	0.0523
1.4900	2.0478	0.0261
1.5000	1.9259	0.0314
1.5100	1.8306	0.0368
1.5200	1.7426	0.0381
1.5300	1.6667	0.0387
1.5400	1.6117	0.0439
1.5500	1.5607	0.0451
1.5600	1.5085	0.0457
1.5700	1.4615	0.0459
1.5800	1.4222	0.0473
1.5900	1.3953	0.0382
1.6000	1.3659	0.0238
1.6100	1.3177	0.0335
1.6200	1.2958	0.0407
1.6300	1.3041	0.0509
1.6400	1.3268	0.0615
1.6500	1.3597	0.0414
1.6600	1.3740	0.0387
1.6700	1.3793	0.0370
1.6800	1.3888	0.0385
1.6900	1.3990	0.0444
1.7000	1.4263	0.0368
1.7100	1.4721	0.0366
1.7200	1.5272	0.0490
1.7300	1.5748	0.0483
1.7400	1.6229	0.0460
1.7500	1.6717	0.0463
1.7600	1.7288	0.0528
1.7700	1.7916	0.0620
1.7800	1.8726	0.0533
1.7900	1.9568	0.0512
1.8000	2.0447	0.0616
1.8100	2.1462	0.0679
1.8200	2.2612	0.0842
1.8300	2.3964	0.0849
1.8400	2.5494	0.0784
1.8500	2.7684	0.0678
1.8600	3.0425	0.0816
1.8700	3.3972	0.1876
1.8800	4.0140	0.3812
1.8900	9.9173	2.2734
1.9000	14.7422	0.8424
1.9100	10.9117	0.4162
1.9200	9.3540	0.1860
1.9300	8.3712	0.1336
1.9400	7.7241	0.1524
1.9500	7.2456	0.0896
1.9600	6.8013	0.0884
1.9700	6.4131	0.0780
1.9800	6.0666	0.0526
1.9900	5.5761	0.1364
2.0000	4.9597	0.1160
2.0100	4.6485	0.0469
2.0200	4.4088	0.0663
2.0300	4.1956	0.0882
2.0400	3.9837	0.0878
2.0500	3.8133	0.0647
2.0600	3.7113	0.0504
2.0700	3.6372	0.0433
2.0800	3.5695	0.0516
2.0900	3.5101	0.0651
2.1000	3.4855	0.0559
2.1100	3.4716	0.0613
2.1200	3.4991	0.0535
2.1300	3.5632	0.0436
2.1400	3.6311	0.0432
2.1500	3.6981	0.0330
2.1600	3.7644	0.0306
2.1700	3.8658	0.0466
2.1800	3.9987	0.0810
2.1900	4.1271	0.0884
2.2000	4.2689	0.0881
2.2100	4.4097	0.0618
2.2200	4.5527	0.0353
2.2300	4.7010	0.0361
2.2400	4.8760	0.0700
2.2500	5.0518	0.1095
2.2600	5.2723	0.0688
2.2700	5.4658	0.0711
2.2800	5.6319	0.0782
2.2900	5.7988	0.0958
2.3000	5.9834	0.0815
2.3100	6.1717	0.0767
2.3200	6.3603	0.0776
2.3300	6.5431	0.0901
2.3400	6.7272	0.0979
2.3500	6.8964	0.0926
2.3600	7.0758	0.0873
2.3700	7.2630	0.0714
2.3800	7.4816	0.0644
2.3900	7.6346	0.0557
2.4000	7.7989	0.0674
2.4100	7.9821	0.0717
2.4200	8.1561	0.0825
2.4300	8.3287	0.1113
2.4400	8.5503	0.0829
2.4500	8.7409	0.0663
2.4600	8.8825	0.0676
2.4700	9.0701	0.0798
2.4800	9.2481	0.0762
2.4900	9.4358	0.0378
2.5000	9.6014	0.0526